##TITLE=PH265
##JCAMP-DX=4.24
##DATA TYPE=RAMAN SPECTRUM
##DATE=13/6/2016
##SAMPLING PROCEDURE=FT-Raman, Ge-Diode (100mW=SRL130)
##ORIGIN=Administrator
##XUNITS=1/CM
##YUNITS=ABSORBANCE
##RESOLUTION=5
##FIRSTX=5001.8166
##LASTX=3.075844
##DELTAX=-1.9285265
##MAXY=1.0048047
##MINY=0.00040350351
##XFACTOR=1
##YFACTOR=9.3579733e-010
##NPOINTS=2593
##FIRSTY=0.0051000202
##XYDATA=(X++(Y..Y))
5002+5449920+5157753+5889450+7388944+7623744+5927257+6527159+6196072+4342652
4984+2986156+2241394+2469025+3075401+3328348+2762941+2432822+3718224+3371477
4967+3530567+4615573+4289636+3547504+3234541+3067073+2388173+1867866+1798547
4950+2072706+2951673+2961487+2611176+2751796+2945338+3140076+2853937+2220682
4932+2377860+4278966+5744712+5487654+3853967+2322423+1717883+1438354+2437575
4915+3119298+4046379+5511581+5833086+4276485+2122989+1898786+2280264+3651582
4898+3943294+3325516+3493019+3274635+1843287+2262551+4658655+5873267+5528242
4880+3974456+1972611+2481920+3937249+3994738+3166694+3442336+3942137+4088495
4863+3224680+1598620+652977+1825658+3358971+4019185+4773989+6137809+6154531
4846+5348018+3846031+1939511+1581102+2683827+2373515+1917440+2228104+2052974
4828+1880106+4192160+4793360+2990222+1878132+2603857+2180262+2001433+2444504
4811+2560448+3006517+3304509+3128464+2928345+2972806+3516312+3841875+3563896
4794+3245499+3369923+3932279+3205303+1912971+2643783+4276464+5389268+6015079
4776+6263963+5871312+4556926+2891005+2772014+5173576+4783550+2591604+1813175
4759+2958555+3435787+3595885+3482945+3429562+3716793+3543922+2455676+2300616
4741+3159117+3800944+3056366+2415099+1805936+1326138+3170916+3793607+3904413
4724+4294789+4146113+3413141+3844596+5056583+4862628+2900187+711125+3119281
4707+5112312+4651717+2378946+3153701+4692168+4722971+3770883+2389214+3425297
4689+4158766+3690566+2884045+2770459+3540199+4021488+2622499+715989+2049611
4672+3341226+3927084+3744920+2262866+1138172+2247931+3174986+3476374+2631741
4655+1364949+1828512+2851741+2969768+2318307+1488275+534221+2383999+4130219
4637+4896766+4322171+3279838+3459605+3470698+3744884+4380580+4391837+3292072
4620+2121519+2330175+2856432+3018456+1821240+2808794+3432390+3140979+3525957
4603+4727849+5322590+5371357+4910658+3959720+3048082+2106885+1982269+3077344
4585+3316192+2956778+2983236+3447023+3822522+3775204+4782039+5241119+4532909
4568+4259380+4400122+3340419+1749782+2985058+2767265+1613013+4371588+5630982
4551+4475994+1877406+2199009+4584573+4304043+2230098+1278654+2780134+3894944
4533+4121330+3946288+3860753+3579194+3055939+2483041+2392133+2619535+3426080
4516+4293343+4230124+3555503+2597548+1268222+1040597+1804019+3556661+4524077
4498+3851336+2015500+2160765+2921978+2965411+3402242+3182310+2286048+1495016
4481+1569885+1410285+2322957+2900813+2832361+2567995+2719632+4060980+4838497
4464+4137403+3215203+2193496+3879894+5570929+5120344+3617657+3241388+3052869
4446+2644913+2131962+1325474+1651462+2506424+2002542+1240614+1472345+2461207
4429+3102263+2649022+2015102+2810730+4287990+4570064+3739563+2484177+2122832
4412+1187223+1393336+3286327+4986033+5199421+4196717+4537598+5029399+5674884
4394+6228917+5632004+5089362+4990815+4225773+2924987+1923674+3302097+4609758
4377+4679949+4409810+3785724+3869777+3878256+3012806+3034952+4501941+4685810
4360+4382946+3780199+3873677+5066784+5401725+4844306+4163784+3556225+2638035
4342+2295616+2928819+3878706+4618100+4437860+3360849+2796475+3867588+4697719
4325+4270353+2726217+1417192+2576291+2888847+2874036+2998709+2029490+2591241
4308+3725313+3033597+1803151+1624243+4303758+7001546+8055705+7172899+5278266
4290+3451100+2594781+2518972+2833347+2240585+431187+1936557+3329114+3451224
4273+3027464+2622160+2721551+3447785+4964097+4886633+2915332+1946036+2461432
4255+2776487+2521900+1375319+1845186+3594227+4934565+4591561+2454248+1155342
4238+3149091+4452072+3622971+3164795+3944731+3721189+2134997+2285543+2191214
4221+1724042+1195239+1945242+2732567+3467521+3626885+2334248+1868990+3131375
4203+3225292+2305876+1393744+1303707+3203913+3924406+4098278+4016465+3172664
4186+3293143+2767020+1908305+2710689+3214466+2910812+2074852+2166535+2306186
4169+2209077+2911032+3035936+1329430+1351143+3272149+4183090+3877410+3133644
4151+3725591+3978751+2354285+2197096+4112214+4736329+4026854+3363757+3585740
4134+3547936+3006028+2904908+3367832+4406036+4111672+2337057+1113499+2321071
4117+2374236+2486949+2459157+1746278+1085174+1479201+2192395+3848722+4770552
4099+4190428+3182025+1705631+1357919+2116947+2944701+2997477+3003294+2460869
4082+2957515+3923737+3960185+3454256+2555414+1464962+2887699+4514021+5090666
4065+4531639+3537229+2633021+2424483+4642127+6454752+6245972+4459405+2394686
4047+2204393+2619914+2342500+2152823+3141173+3734374+4183661+3600138+2586640
4030+1738689+1693241+1760595+1603709+1803543+2049977+3413754+6195187+7521132
4012+6076076+3594930+2620997+2421774+3186076+3539029+2771471+2272946+3868233
3995+4269939+3819354+4190316+4219035+4151709+3509221+1479637+2574019+4572770
3978+4764133+3589545+2399035+1281558+834051+2035411+2793330+3198816+2599767
3960+1040372+1592156+2310376+1322015+1632628+2830508+1908830+944179+2491709
3943+3796328+4180404+3932917+3749262+3070254+3457919+4139021+3518266+3368799
3926+4942165+6124023+6354465+5953460+5460749+5205939+4588811+4273846+4577098
3908+4949429+4405296+3382117+3140091+3527638+2868131+1648907+2428342+3373314
3891+2806602+2433832+2774143+2816443+2681634+3403581+4039892+3706816+2845091
3874+2061296+3182278+5515291+6753141+6177912+5013316+4037381+2477638+1288239
3856+2370048+2659414+2949571+3995918+5267999+6173092+6828110+7206539+6469453
3839+5098675+3836168+2533641+2518052+2644430+2800254+3024930+2577876+2844574
3822+3448180+2854185+2714410+1914919+1684891+2039931+1606150+2260064+3996783
3804+4263653+2917469+2262070+3539565+3399531+1248010+2020672+4133064+4496191
3787+3466509+2902842+4245234+4489066+3131588+1074505+2410389+3865761+4000952
3769+3156539+3026675+4318892+5530357+5829246+4569733+2736836+3074946+4069540
3752+4116695+3327505+2693004+2225705+1949323+2860050+4036750+4374641+3547245
3735+3071913+2253165+3079872+3017101+2616002+2338498+2247801+2428474+2144157
3717+1807845+2626315+3122431+3104809+2649538+1936551+2346812+3287164+3353187
3700+2983692+3303937+2750106+2612425+3025517+1970679+1148374+1820855+2347133
3683+2890964+3055570+3115661+3857145+4439188+3581403+1574126+1409996+3366998
3665+4780034+4932948+4864663+4859589+5067442+4444438+2962247+1692858+827586
3648+1140800+2261594+2088181+2375420+3565984+4219978+4179656+3734155+3685012
3631+3753958+3704592+4319237+4399641+4144751+3940626+3836085+3112403+1787451
3613+515834+1809836+2457937+2169686+1233673+1730483+1950457+1211528+1974898
3596+3476380+4976416+5644998+4970307+4149646+4399015+4528322+4111920+3556151
3579+3375451+3476144+3127835+2154976+1666161+1571920+1405785+2159483+2918875
3561+2838796+2842014+3243544+3446602+2990627+2469205+2734827+3169685+2445040
3544+1843215+2075914+2217151+2098994+3245812+4429396+4321550+3671723+2818457
3526+2073339+2318011+3155583+3872636+4173248+4164527+3783448+2499911+2791282
3509+3131887+4196678+4381953+4618668+4701955+4238106+4365047+4762556+4440709
3492+4238434+4517425+4802494+5451543+5958490+5742691+4969002+4114019+3574662
3474+3927500+5059400+6277348+6317340+4714812+3115230+3346908+4181198+5094200
3457+5865670+6730447+7058605+5684528+3343713+2545655+3244547+3309426+3129775
3440+4432397+6006331+6432817+5608483+4402488+3987257+4592693+5633159+6645278
3422+7574469+8455790+9169234+9243993+8447809+6853337+5227014+5212656+6433041
3405+7768778+8553460+8830560+8910925+8543427+7497762+6549800+6885558+8699883
3388+10500220+11744578+12701214+12747291+11763708+10781486+10805837+11971854
3372+13108851+13479170+13904948+14422061+14354005+13743818+13491720+13958163
3357+14136277+13777297+14194147+15636873+16444456+15827350+15083698+15593992
3341+17258677+19050330+19723864+18583830+16353390+14656839+14570285+15940337
3326+17741584+18930496+19078668+18548121+18398974+19420080+21060629+22009470
3310+21601120+20396015+19803647+20601975+22147766+23457523+23945460+23217992
3295+21417214+19922896+20079794+21586742+23138356+24101415+24680871+24983115
3280+25043654+25065294+25202901+25391708+25888138+26904033+27952197+28299502
3264+27897295+27550258+27844324+28471598+28829904+29104437+29908434+31127622
3249+32080295+32475530+32551192+32548457+32557126+32652808+32953684+33506072
3233+34110520+34486589+34729108+35256450+36200498+36915750+36478180+35214695
3218+34671294+35909015+38313140+40305395+40979090+40873366+41195184+42189097
3203+43192766+43595762+43322013+42949336+43406866+44514902+44717445+43457678
3187+42124467+42358367+44383481+46692535+47658963+47237524+46514928+46184583
3172+46465697+47651352+49681247+51974397+54039614+55419898+55371590+53952238
3156+52377325+51316458+50415256+49489536+48740985+48524839+49244239+50684268
3141+52041228+52978182+53830726+54790642+55815354+56861285+57488268+57421959
3125+57167040+57256884+57789648+58855439+60574556+62766476+65223116+67863343
3110+70117536+71442713+72412876+74128863+76749655+79392795+81426304+83331606
3095+86406536+91533375+98496551+106848971+116343067+126076986+135052597
3081+143952316+154592584+167989543+184350454+204072033+227747908+255603462
3068+286577504+317431308+343711566+362456574+373745661+379489487+380642348
3054+375451035+360856486+336127780+305245251+275648320+253890461+241397207
3041+234351158+227695568+218633493+207132018+194424292+181301121+167704720
3027+153832460+140757410+129586874+120651056+114107225+110591215+110121639
3014+111252995+112777749+115271487+119443395+124149941+127298748+127569845
3000+124531898+118825460+112834755+109390886+109498895+112320442+117034298
2987+123193369+129775679+135588852+140002462+142334441+141736849+138513838
2973+134461118+131379986+130059276+130570022+132453055+134702375+136504835
2960+137904128+139329376+141007457+142988753+144886229+145870364+145977179
2946+146606969+148723886+151760305+154891627+158116230+161447918+164344672
2933+166465012+168021438+169327244+170766744+172760763+175172010+177319961
2919+178842757+180197209+182201833+185044352+187774195+189097517+188637870
2906+187014119+184913683+182409571+179130016+174777776+169190652+162398471
2892+154974334+147684145+140790197+134324415+128590103+123883971+120291432
2879+117778721+116020799+114878297+114871418+116267812+118624362+121782675
2865+125918109+130485771+134646579+138488711+142524074+146469836+149413628
2852+150523527+149169298+145352468+139812717+133100663+125393852+117311231
2838+110100676+105070875+102836188+102649222+102974467+103049849+103137508
2825+103305135+103090422+102426237+101960396+102183723+102821379+103128981
2811+102751077+102334446+102636746+103391854+103951135+104317343+104769172
2798+105373899+106061403+106454515+106222478+105779550+105865919+106683574
2784+107910591+108855976+108936095+108511304+108265907+108123074+107606006
2771+106794179+106485788+107343643+108845284+109750996+109761665+109826012
2757+110601048+111499825+111742897+111654124+112077657+112946745+113548621
2744+113876948+114515878+115525770+116405774+116921583+117210332+117258676
2730+116989401+116636792+116315774+115760920+115146432+115280317+116474268
2717+118143329+119523291+120161170+120286360+120564719+121065369+121305002
2703+121165592+120827265+120356758+119961633+120169339+121373680+123297732
2690+124954666+125332451+124294693+122708116+121567740+121172367+121372669
2676+122220364+123760715+125445540+126459277+126611084+126394938+126231428
2663+126205242+126400711+126806903+126935963+126309326+125474338+125722911
2649+127338883+129080172+129780790+129563530+129337464+129788847+130831605
2636+131639484+131422494+130337619+129464239+129867939+131538139+133130981
2622+133367334+132756652+132971197+134484144+136296970+137851071+139107944
2609+139419407+138336849+136900613+136424756+136719675+136933559+137047699
2595+137141791+136626650+135481782+134758060+134935145+135352691+135559298
2582+135739568+136060347+136582159+137199258+137345102+136676840+135863946
2568+135675571+136042576+136646124+137366742+137894016+137926707+137839415
2555+138333266+139447496+140413033+140488288+139750648+138849601+138065894
2541+137184418+136341380+136022035+136122416+136148053+136163690+136541475
2528+137194481+137856899+138432087+138644777+138111292+137023909+136197989
2514+136085187+136258530+136209486+136015410+135866685+135603486+135145892
2501+134799732+134864142+135332946+135953787+136330122+136302830+136352957
2487+136978368+137743714+137939764+137794001+137945003+138463074+139200236
2474+140101586+140666981+140268273+139331064+139087020+139795536+140205837
2460+139386796+138059159+137357538+137477776+138017216+138574825+139036049
2447+139660457+140440772+140549943+139324631+137474162+136304852+136209868
2433+136675376+137254608+137826453+138246976+138362820+138289683+138281005
2420+138335177+138313553+138268425+138309190+138219015+137849988+137684973
2406+138007153+138229269+137972662+137712154+137749925+137815752+137909398
2393+138303584+138857467+139167816+139114647+138751671+138106579+137464894
2379+137399050+137938968+138211260+137641231+136776394+136370743+136521571
2366+136915629+137169290+136921999+136101015+135288376+135411592+136531937
2352+137443588+137280102+136589643+136129805+135942131+135980315+136331046
2339+136845200+137395340+138023745+138458202+138313616+137810657+137536152
2325+137639352+137807217+137892870+138183235+138948295+139795265+139872160
2312+138853359+137299656+136043515+135622578+136142480+137411375+139045906
2298+140207477+139895902+138276960+136944705+137083702+138131690+138830811
2285+138816337+138616513+138701704+139188485+140027175+140930547+141530448
2271+141839460+142136019+142514775+142970171+143445535+143554069+142972289
2258+142072420+141414318+140998922+140882155+141808106+143964704+146074169
2244+147078161+147426981+147788635+147991739+147866167+147781374+148055736
2231+148686004+149635203+150961296+152602084+154052969+154464400+153444914
2217+151619668+150201872+150118465+151356485+153068165+154529575+155497898
2204+155757499+155319221+154889143+155131785+155768295+156243277+156540664
2190+156926522+157563096+158263204+158601355+158570559+158597183+158908010
2177+159577290+160441569+160585613+159293597+157252858+155616847+155006022
2163+155907482+158349286+160926551+161637822+160286188+159277275+161041487
2150+165194143+169648787+173644182+178350020+185511292+195940224+208376790
2136+220243039+230217929+239006072+247310667+254048899+256706992+253316164
2123+244064185+230950409+216603725+203841811+194866837+189666193+186145318
2109+182541832+178954762+176316017+174921023+174464768+174739241+175607183
2096+176519758+176625729+175598695+174039817+172768470+172115177+172090655
2082+172684983+173721061+174736757+175315098+175422550+175220767+174795387
2069+174458478+174873476+176207482+177613574+178151741+177545979+176126145
2055+174819129+174679560+175834077+177385789+178569032+179387658+180051684
2042+180535105+180899594+181308032+181529480+181258844+180947110+181408381
2028+182626099+183688594+183980185+183953720+184337667+184922824+185105657
2015+185250625+186041990+187027240+187300424+186817655+186077659+185542407
2001+185605750+186319791+187397079+188626628+189733310+190191111+189760237
1988+188712073+187412748+186200747+185545751+185858361+186968722+188080993
1974+188606628+188763984+188986690+189193345+189067900+188795799+188942900
1961+189666416+190583115+191365261+191925068+192125751+191818715+191120278
1947+190431173+190184980+190604517+191581741+192788248+193989469+195132871
1934+196073695+196741574+197595375+198865322+199585716+198806962+197245918
1920+196408120+196816812+197937380+198985655+199382087+198996579+198149545
1907+197345281+197037066+197385886+198156933+198979748+199669092+200235331
1893+200553960+200353006+199734346+199284285+199503519+200443674+201671598
1880+202272742+201482029+199663789+198201232+198224098+199618869+201246473
1866+201966947+201612649+201130645+201225963+201174276+200182274+199032996
1853+198912089+199782945+200933194+201847808+202307073+202461149+202511817
1839+202355130+202267614+203105795+205029289+207141541+208767504+209926113
1826+210660728+210960822+211095551+211373750+212022632+213352530+215293190
1812+217047402+217970088+218406726+219067472+220033168+220857957+221351697
1799+221824624+222291947+221990547+220302816+217682606+215166057+213329505
1785+212057250+211152732+210917080+211864257+213903674+216149046+217446635
1772+217003055+215130739+213439473+213429027+214889625+216441688+217372782
1758+217946808+218357093+218586455+218885466+219464683+220199122+221044134
1745+221988764+222652327+222979619+223694201+224858352+225326694+224691124
1731+224194963+224876569+226277788+227599852+228759401+229821306+230442864
1718+230438469+230331686+230798229+231629578+231889195+231282223+230673245
1704+230912655+231738702+232159862+231523591+230098375+228825865+228496758
1691+229222997+230689567+232505848+234200219+235447761+236558361+238187047
1677+240345031+242291407+243637722+244731571+245679703+246109478+246190019
1664+246754873+248088434+249432106+250094491+250531973+251703926+253702595
1650+255846088+257810729+259779191+261854277+264094362+266767980+270203314
1637+274669981+280428998+287751129+296944366+308301924+322062114+338860506
1623+360330469+388611291+424581695+466465128+510645494+554700700+600026347
1610+650209422+704344964+750531880+767922881+740255113+670763529+582228914
1596+500355032+438232395+396393547+372419679+365166561+369790042+374485975
1583+368489730+352900376+338428852+332433912+332520409+331898182+326120312
1569+314837116+300760304+287551894+277376528+270279619+265519864+262406089
1556+260206609+258406013+256942739+255883413+255368097+255739767+257062468
1542+258817348+260482850+261814245+262368478+261718290+260371736+259540689
1529+259712153+260077597+259696516+258656394+257596844+256656116+255597140
1515+254537846+253820333+253417851+252944589+252094768+250955602+249977581
1502+249634764+250214443+251743210+253699156+255064500+255173448+254243054
1488+252846198+251399071+250303089+249881021+250004555+250245462+250285828
1475+249927549+249201470+248824465+249928982+252986866+257452992+262777807
1461+269365483+277811972+287205049+295122559+299666614+300700049+299016872
1448+295331412+290333378+284812321+279309927+274057436+269466406+266369048
1434+265410566+266211676+267264506+266964444+264954708+262074881+259149480
1421+256528123+254380586+252661645+251282559+250602084+250963962+251829801
1407+252317220+252315564+252096631+251409899+250154746+249215737+249309543
1394+249796865+249826403+249826244+250979742+253812849+257752178+261759930
1380+265193178+267960203+269980448+270946686+270632293+269156854+266971195
1367+264721269+262875179+261337496+259900400+258959354+258877635+259213397
1353+259560131+260190240+261233802+262426503+263861751+265920404+268577653
1340+271386620+274018328+276477838+278600217+279836453+280107789+280096261
1326+280146961+279856134+279084355+278518911+278988240+280652500+282919273
1313+284836875+285455280+284306177+281858036+279119864+276752264+274726796
1299+272708334+270504013+268015744+265262525+262762998+261202894+260510031
1286+260166163+260127533+260559410+261435871+262673556+263898503+264684295
1272+265414992+266700193+268204979+269180006+269288382+268388004+266704238
1259+265160758+264518468+264581716+264875504+265335184+265739290+265385152
1245+264122642+263094462+263733408+266280020+269709240+272921072+275624562
1232+277932513+279430531+279322124+277655540+275572015+273947564+272836932
1218+272486105+273630304+276546723+280923964+286506549+292996741+299814926
1205+306218112+311106497+313344575+312906329+310908982+308664661+307622246
1191+309542428+315665647+325660760+336852936+344313028+343431122+333561232
1178+318502067+303373508+291619487+284240127+280511163+279230564+279858491
1164+283003699+289832075+300122854+310454462+315521062+312412924+303184687
1151+292699609+284400189+278396141+272952600+266854603+260198775+253736767
1137+248167478+243690302+239933281+236654889+234135299+232518252+231667380
1124+231740947+232621612+233228169+232898935+232678267+233873517+236249429
1110+238681679+240792353+243059970+245642856+247690331+248169914+247395459
1097+246968359+247765680+248887427+249134305+248660007+248497206+249113827
1083+250188344+251359469+252369258+252873172+252912185+252888809+252635403
1070+251506523+249550338+247519631+245640913+243495318+241342669+240246815
1056+240308359+240373008+240135828+240505460+241777460+243709856+246938073
1043+252879797+263273155+279597473+300766482+321400111+333971294+333282316
1029+319541999+298358340+277686495+263212152+255794305+253261674+253597436
1016+256356277+263454158+280431832+318728881+394408270+508237034+617750849
1002+654387428+591267152+475069578+374406772+318095954+294225876+283164272
989+274849916+267001768+260055225+254660154+251147305+249334606+248324945
975+247201384+246018459+245540691+245989351+246569333+246502979+245900689
962+245268336+244779293+244305713+243838533+243632611+243688088+243334109
948+242050166+240406384+239477790+239697183+240662147+241587015+241752094
935+241065489+240249904+239974348+240188041+240657370+241240202+241403099
921+240752784+240109092+240851860+243242406+246066230+247850123+248223162
908+248029135+248124309+248405821+248125965+246834825+244973735+243542563
894+243010177+242887359+242637647+242412155+242504654+242668953+242470912
881+241982523+241723559+241945039+242285802+242417871+242687265+243427421
867+244103691+244110777+243852036+244072418+244797510+245773747+247073996
854+248609833+249932326+250834838+251485504+252060214+252751358+253698774
840+254536445+254655138+254176319+253925078+254238532+254475235+254017498
827+253315527+253441896+254707511+256253523+257236432+257807926+258470073
813+259209018+259951499+261091509+262872616+265216108+268935358+275769912
800+285761266+295338546+299619099+296822583+289527172+281501573+274364950
786+267793707+261712526+256876243+253686831+251781649+250822386+250754870
773+251332256+252014227+252344098+252258526+251983813+251613927+251141923
759+250820857+250797211+250631845+249822900+248353162+246482629+244627479
746+243351402+242952073+243126467+243201403+242726500+241843368+240881987
732+239781546+238391839+237152068+236839617+237454949+237810695+236811114
719+234801665+232963951+232092442+232622312+234599309+237104839+238815898
705+238985722+237168756+233061196+227506684+222548092+219695223+218786932
692+218763301+218741040+218101998+216583853+214934354+214492844+215504447
678+216804871+217376206+217258627+217060666+217277146+217869101+218395373
665+218709989+218993618+219196579+219259827+219556355+220285268+220938928
651+221178767+221742395+223745762+227078580+230012229+231001046+230687958
638+231074071+232867152+235048001+236824522+239189128+245131075+257213088
624+272244387+280568360+275478098+261288515+247643101+239097186+234359900
611+231641266+230399711+230220779+230745601+231849227+233221195+234488625
597+235623891+236690319+237597830+238399674+239177918+239512519+238988333
584+238249006+238499036+240064236+242237792+244164201+245358144+245938699
570+246641800+248085743+250056275+251874801+253189063+254127036+254977016
557+255883668+256744810+257451240+258073896+258654419+259069863+259174082
543+258975771+258791648+258998892+259359065+259134369+258244930+257573309
530+257758834+258444102+258950978+259027029+258818017+258755708+259434288
516+260960682+262674687+263986496+264948020+265651138+265841232+265529737
503+265325884+265894417+267405524+269404337+270978023+271450887+271088596
489+270743343+270872674+271328468+271913051+272649735+273619731+274727687
476+275659084+276341247+277231019+278479453+279235278+278692350+277335064
462+276341406+276277616+276899938+277680062+278036430+277580094+276805926
449+277006084+278649516+280592246+281734788+282377747+283141597+283899937
435+284523023+285418401+286858299+288564183+290080290+291268692+292374802
422+293520847+294465747+295218291+296102873+296911596+297161626+297004589
408+296664399+295867269+294748676+293911864+293276294+292364451+291436972
395+291186336+291677225+292243879+292262509+291688627+290949585+290567517
381+290667453+290676211+290092583+289577490+290213633+291844358+293303205
368+293875623+293651643+293056805+292633813+292753462+293272313+293830846
354+294337181+294807911+295127719+295253514+295297750+295443513+296003001
341+297074461+298053883+298263022+297911145+297731114+298096654+298912319
327+299851136+300551642+300960844+301436224+302271220+303209591+303648284
314+303329209+302558703+301662401+300686546+299865754+299749066+300424923
300+301222180+301648834+302119788+303401501+305756872+308785457+311729838
287+313768714+314180495+312753623+310358793+308412115+307384158+306725467
273+306157253+305812095+305508434+305108117+304986112+305432638+306362411
260+307686704+309224531+310731944+312504484+315066096+318125094+320866546
246+323237554+326139229+330363827+335617974+340768204+345214362+349440775
233+353857315+358020671+361390623+363899656+365540444+366113085+365515476
219+363999687+362021353+359800981+357270420+354594063+352382035+351187900
206+351011468+351264492+351153824+350374751+349374247+348663772+348205590
192+347755178+347369065+347373332+348097851+349626602+351688408+353763239
179+355341225+356493098+358054301+360506232+363108800+365008090+366433529
165+368103776+370316250+372943021+375645174+378097455+380414387+383285074
152+387432475+392921908+399213598+405708504+411943602+417869879+424241187
138+431875610+440672702+450217816+460697098+472535737+485806884+500166689
125+515068976+530476451+547370671+566891726+589111494+613303736+639248582
111+667443609+697916841+729904079+763022394+797572423+833389961+869457116
98+904737268+938509211+969884032+997872244+1022240792+1043475214+1061124430
84+1072589344+1073741823+1059545202+1023673651+959489113+863536443+738899578
71+595748023+448934574+313740211+201608573+117885623+61884342+28536659+11063869
55+3241093+864382+879284+1914040+2776918+2952543+2247024+1430336+1061277
38+1123724+1500507+1873069+2325240+2851094+2882827+2359661+1822468+2149047
20+2420803+2624083+2656361+2213802+1998897+2861136+3296849+3640010+3779445
3+3339363
##END=
